CP      startX  startY  dispX   dispY   sLat          sLon          theta   pCorr   pkStr   cCorr   conf   velX    velY    endX    endY    eLat          eLon          nps_startX    nps_startY    nps_endX      nps_endY      
0       112     32      0       2       83.8539994    128.8838858   0.000   0.143   13.543  0.268   2      0.000   0.400   112     34      83.8536060    128.8496922   71000.0000000  662600.0000000  71400.0000000  662600.0000000  
1       144     32      0       2       83.9125796    128.8246933   0.000   0.185   18.160  0.359   2      0.000   0.400   144     34      83.9121823    128.7901739   71000.0000000  656200.0000000  71400.0000000  656200.0000000  
2       224     40      0       1       84.0573721    128.5301800   0.000   0.202   20.695  0.478   3      0.000   0.200   224     41      84.0571643    128.5125086   72600.0000000  640200.0000000  72800.0000000  640200.0000000  
3       256     40      0       2       84.1159224    128.4654112   0.000   0.216   21.500  0.442   3      0.000   0.400   256     42      84.1155021    128.4297219   72600.0000000  633800.0000000  73000.0000000  633800.0000000  
4       296     40      1       2       84.1891036    128.3826117   0.000   0.204   20.925  0.467   3      0.200   0.400   297     42      84.1905072    128.3443702   72600.0000000  625800.0000000  73000.0000000  625600.0000000  
5       328     48      1       2       84.2459090    128.1688991   0.000   0.209   21.666  0.467   3      0.200   0.400   329     50      84.2472982    128.1302275   74200.0000000  619400.0000000  74600.0000000  619200.0000000  
6       360     48      0       2       84.3044251    128.0982637   0.000   0.138   15.985  0.384   2      0.000   0.400   360     50      84.3039812    128.0614193   74200.0000000  613000.0000000  74600.0000000  613000.0000000  
7       392     48      1       2       84.3629352    128.0261595   0.000   0.191   19.228  0.367   2      0.200   0.400   393     50      84.3643149    127.9866485   74200.0000000  606600.0000000  74600.0000000  606400.0000000  
8       432     48      0       2       84.4360639    127.9338935   0.000   0.222   22.735  0.391   2      0.000   0.400   432     50      84.4356095    127.8961895   74200.0000000  598600.0000000  74600.0000000  598600.0000000  
9       464     56      0       2       84.4927078    127.7059560   0.000   0.199   20.319  0.400   2      0.000   0.400   464     58      84.4922388    127.6678828   75800.0000000  592200.0000000  76200.0000000  592200.0000000  
10      504     56      0       2       84.5657923    127.6071694   0.000   0.181   17.547  0.280   1      0.000   0.400   504     58      84.5653169    127.5685920   75800.0000000  584200.0000000  76200.0000000  584200.0000000  
11      536     56      0       2       84.6242510    127.5262035   0.000   0.249   24.946  0.415   3      0.000   0.400   536     58      84.6237705    127.4872133   75800.0000000  577800.0000000  76200.0000000  577800.0000000  
12      576     56      0       2       84.6973127    127.4224823   0.000   0.182   18.048  0.393   2      0.000   0.400   576     58      84.6968255    127.3829636   75800.0000000  569800.0000000  76200.0000000  569800.0000000  
13      96      64      0       2       83.8181827    128.3690651   0.000   0.180   17.979  0.376   2      0.000   0.400   96      66      83.8177564    128.3351042   77400.0000000  665800.0000000  77800.0000000  665800.0000000  
14      168     64      0       2       83.9498438    128.2238286   0.000   0.178   17.432  0.365   2      0.000   0.400   168     66      83.9494082    128.1891377   77400.0000000  651400.0000000  77800.0000000  651400.0000000  
15      224     72      1       2       84.0504435    127.9653242   0.000   0.178   17.220  0.363   2      0.200   0.400   225     74      84.0518188    127.9278782   79000.0000000  640200.0000000  79400.0000000  640000.0000000  
16      624     72      0       2       84.7809337    126.9730196   0.000   0.180   16.891  0.385   2      0.000   0.400   624     74      84.7804178    126.9329104   79000.0000000  560200.0000000  79400.0000000  560200.0000000  
17      312     80      0       2       84.2093781    127.6236781   0.000   0.179   17.853  0.398   2      0.000   0.400   312     82      84.2089041    127.5874771   80600.0000000  622600.0000000  81000.0000000  622600.0000000  
18      256     88      0       2       84.1052073    127.6103348   0.000   0.182   17.993  0.311   2      0.000   0.400   256     90      84.1047325    127.5747756   82200.0000000  633800.0000000  82600.0000000  633800.0000000  
19      344     88      0       2       84.2658927    127.4017023   0.000   0.191   20.104  0.348   2      0.000   0.400   344     90      84.2654044    127.3651627   82200.0000000  616200.0000000  82600.0000000  616200.0000000  
20      416     88      0       2       84.3973193    127.2220886   0.000   0.249   25.887  0.466   3      0.000   0.400   416     90      84.3968195    127.1847065   82200.0000000  601800.0000000  82600.0000000  601800.0000000  
21      664     88      0       2       84.8496484    126.5331749   0.000   0.189   17.862  0.286   1      0.000   0.400   664     90      84.8491045    126.4925753   82200.0000000  552200.0000000  82600.0000000  552200.0000000  
22      696     88      0       2       84.9079654    126.4353577   0.000   0.155   15.126  0.291   1      0.000   0.400   696     90      84.9074152    126.3943031   82200.0000000  545800.0000000  82600.0000000  545800.0000000  
23      96      96      0       1       83.8111023    127.8262682   0.000   0.199   19.909  0.415   3      0.000   0.200   96      97      83.8108721    127.8093261   83800.0000000  665800.0000000  84000.0000000  665800.0000000  
24      144     96      0       1       83.8987765    127.7224359   0.000   0.254   25.533  0.442   3      0.000   0.200   144     97      83.8985430    127.7052539   83800.0000000  656200.0000000  84000.0000000  656200.0000000  
25      192     96      0       2       83.9864369    127.6155707   0.000   0.239   24.666  0.415   3      0.000   0.400   192     98      83.9859624    127.5807146   83800.0000000  646600.0000000  84200.0000000  646600.0000000  
26      384     96      0       2       84.3369201    127.1549752   0.000   0.228   23.365  0.461   3      0.000   0.400   384     98      84.3364161    127.1179983   83800.0000000  608200.0000000  84200.0000000  608200.0000000  
27      456     96      0       2       84.4682755    126.9671831   0.000   0.214   22.054  0.437   3      0.000   0.400   456     98      84.4677594    126.9293443   83800.0000000  593800.0000000  84200.0000000  593800.0000000  
28      728     96      0       2       84.9640275    126.1692484   0.000   0.170   16.909  0.306   2      0.000   0.400   728     98      84.9634604    126.1277658   83800.0000000  539400.0000000  84200.0000000  539400.0000000  
29      760     96      0       2       85.0222923    126.0649140   0.000   0.181   17.185  0.375   2      0.000   0.400   760     98      85.0217185    126.0229574   83800.0000000  533000.0000000  84200.0000000  533000.0000000  
30      792     96      0       3       85.0805426    125.9581055   0.000   0.174   17.541  0.338   2      0.000   0.600   792     99      85.0796707    125.8944471   83800.0000000  526600.0000000  84400.0000000  526600.0000000  
31      824     96      0       2       85.1387779    125.8487345   0.000   0.190   18.338  0.322   2      0.000   0.400   824     98      85.1381903    125.8057973   83800.0000000  520200.0000000  84200.0000000  520200.0000000  
32      496     104     0       2       84.5391236    126.7056484   0.000   0.248   24.713  0.460   3      0.000   0.400   496     106     84.5385908    126.6673432   85400.0000000  585800.0000000  85800.0000000  585800.0000000  
33      856     104     0       3       85.1946019    125.5629963   0.000   0.108   10.738  0.201   1      0.000   0.600   856     107     85.1936921    125.4978991   85400.0000000  513800.0000000  86000.0000000  513800.0000000  
34      928     104     0       3       85.3254674    125.2959876   0.000   0.239   23.957  0.441   3      0.000   0.600   928     107     85.3245321    125.2291193   85400.0000000  499400.0000000  86000.0000000  499400.0000000  
35      296     112     0       2       84.1723315    127.0853522   0.000   0.208   21.663  0.384   2      0.000   0.400   296     114     84.1718232    127.0494273   87000.0000000  625800.0000000  87400.0000000  625800.0000000  
36      528     112     0       2       84.5952843    126.4605305   0.000   0.245   25.673  0.444   3      0.000   0.400   528     114     84.5947359    126.4218513   87000.0000000  579400.0000000  87400.0000000  579400.0000000  
37      976     112     0       3       85.4101025    124.9279698   0.000   0.179   17.487  0.301   2      0.000   0.600   976     115     85.4091321    124.8599441   87000.0000000  489800.0000000  87600.0000000  489800.0000000  
38      232     120     0       1       84.0535640    127.1011507   0.000   0.177   18.930  0.403   3      0.000   0.200   232     121     84.0533106    127.0835462   88600.0000000  638600.0000000  88800.0000000  638600.0000000  
39      264     120     0       2       84.1119285    127.0222122   0.000   0.149   15.247  0.406   2      0.000   0.400   264     122     84.1114161    126.9866619   88600.0000000  632200.0000000  89000.0000000  632200.0000000  
40      328     120     0       2       84.2286316    126.8595377   0.000   0.241   24.672  0.436   3      0.000   0.400   328     122     84.2281089    126.8232820   88600.0000000  619400.0000000  89000.0000000  619400.0000000  
41      416     120     0       2       84.3890377    126.6247949   0.000   0.262   27.514  0.458   3      0.000   0.400   416     122     84.3884999    126.5875235   88600.0000000  601800.0000000  89000.0000000  601800.0000000  
42      568     120     0       2       84.6659123    126.1860357   0.000   0.241   23.809  0.504   3      0.000   0.400   568     122     84.6653464    126.1468725   88600.0000000  571400.0000000  89000.0000000  571400.0000000  
43      88      128     0       1       83.7888734    127.3030368   0.000   0.271   27.925  0.450   3      0.000   0.200   88      129     83.7886265    127.2861756   90200.0000000  667400.0000000  90400.0000000  667400.0000000  
44      136     128     0       1       83.8764399    127.1920823   0.000   0.211   21.419  0.437   3      0.000   0.200   136     129     83.8761895    127.1749841   90200.0000000  657800.0000000  90400.0000000  657800.0000000  
45      376     128     0       2       84.3139976    126.5859712   0.000   0.245   24.532  0.437   3      0.000   0.400   376     130     84.3134574    126.5491960   90200.0000000  609800.0000000  90600.0000000  609800.0000000  
46      656     128     0       2       84.8237315    125.7491995   0.000   0.213   21.395  0.414   3      0.000   0.400   656     130     84.8231378    125.7088898   90200.0000000  553800.0000000  90600.0000000  553800.0000000  
47      696     128     0       2       84.8964669    125.6160018   0.000   0.187   18.858  0.347   2      0.000   0.400   696     130     84.8958647    125.5751327   90200.0000000  545800.0000000  90600.0000000  545800.0000000  
48      896     128     0       3       85.2597504    124.8886590   0.000   0.165   12.575  0.294   2      0.000   0.600   896     131     85.2587764    124.8228008   90200.0000000  505800.0000000  90800.0000000  505800.0000000  
49      1032    128     0       3       85.5063406    124.3268662   0.000   0.175   16.439  0.359   2      0.000   0.600   1032    131     85.5053131    124.2575166   90200.0000000  478600.0000000  90800.0000000  478600.0000000  
50      1064    128     0       3       85.5643007    124.1855963   0.000   0.173   17.029  0.290   1      0.000   0.600   1064    131     85.5632597    124.1153730   90200.0000000  472200.0000000  90800.0000000  472200.0000000  
51      192     136     0       1       83.9765266    126.9195259   0.000   0.177   18.190  0.427   3      0.000   0.200   192     137     83.9762675    126.9021546   91800.0000000  646600.0000000  92000.0000000  646600.0000000  
52      496     136     0       2       84.5303078    126.0936833   0.000   0.295   31.546  0.500   3      0.000   0.400   496     138     84.5297361    126.0555019   91800.0000000  585800.0000000  92200.0000000  585800.0000000  
53      600     136     0       2       84.7195196    125.7713488   0.000   0.223   22.362  0.491   3      0.000   0.400   600     138     84.7189273    125.7318331   91800.0000000  565000.0000000  92200.0000000  565000.0000000  
54      1096    136     0       3       85.6194073    123.8510103   0.000   0.141   14.433  0.262   1      0.000   0.600   1096    139     85.6183345    123.7799840   91800.0000000  465800.0000000  92400.0000000  465800.0000000  
55      1128    136     0       3       85.6772773    123.6996616   0.000   0.148   13.656  0.312   2      0.000   0.600   1128    139     85.6761901    123.6277218   91800.0000000  459400.0000000  92400.0000000  459400.0000000  
56      1160    136     0       3       85.7351184    123.5442028   0.000   0.181   16.978  0.341   2      0.000   0.600   1160    139     85.7340164    123.4713267   91800.0000000  453000.0000000  92400.0000000  453000.0000000  
57      976     144     0       3       85.3994191    124.2038768   0.000   0.225   23.304  0.402   3      0.000   0.600   976     147     85.3983800    124.1361680   93400.0000000  489800.0000000  94000.0000000  489800.0000000  
58      1280    144     0       3       85.9486300    122.7174842   0.000   0.202   20.547  0.356   2      0.000   0.600   1280    147     85.9474496    122.6409990   93400.0000000  429000.0000000  94000.0000000  429000.0000000  
59      1312    144     0       3       86.0062699    122.5372442   0.000   0.207   20.496  0.483   3      0.000   0.600   1312    147     86.0050724    122.4597084   93400.0000000  422600.0000000  94000.0000000  422600.0000000  
60      296     152     0       2       84.1617310    126.3680795   0.000   0.208   21.233  0.429   3      0.000   0.400   296     154     84.1611771    126.3322855   95000.0000000  625800.0000000  95400.0000000  625800.0000000  
61      440     152     0       2       84.4238129    125.9583899   0.000   0.315   32.328  0.554   3      0.000   0.400   440     154     84.4232327    125.9209527   95000.0000000  597000.0000000  95400.0000000  597000.0000000  
62      568     152     0       2       84.6565604    125.5604439   0.000   0.223   22.303  0.521   3      0.000   0.400   568     154     84.6559548    125.5214181   95000.0000000  571400.0000000  95400.0000000  571400.0000000  
63      760     152     0       2       85.0052215    124.8939321   0.000   0.242   24.738  0.481   3      0.000   0.400   760     154     85.0045734    124.8522627   95000.0000000  533000.0000000  95400.0000000  533000.0000000  
64      840     152     0       2       85.1503039    124.5879130   0.000   0.221   22.224  0.490   3      0.000   0.400   840     154     85.1496364    124.5450373   95000.0000000  517000.0000000  95400.0000000  517000.0000000  
65      1376    152     0       3       86.1181266    121.9482140   0.000   0.207   20.971  0.322   2      0.000   0.600   1376    155     86.1168734    121.8686296   95000.0000000  409800.0000000  95600.0000000  409800.0000000  
66      88      160     0       1       83.7807083    126.7641594   0.000   0.271   28.780  0.546   3      0.000   0.200   88      161     83.7804443    126.7473426   96600.0000000  667400.0000000  96800.0000000  667400.0000000  
67      240     160     0       2       84.0575596    126.3768914   0.000   0.187   18.746  0.385   2      0.000   0.400   240     162     84.0570062    126.3417250   96600.0000000  637000.0000000  97000.0000000  637000.0000000  
68      344     160     0       2       84.2468538    126.0904113   0.000   0.243   24.381  0.453   3      0.000   0.400   344     162     84.2462822    126.0541141   96600.0000000  616200.0000000  97000.0000000  616200.0000000  
69      1208    160     0       3       85.8126269    122.7094783   0.000   0.199   20.219  0.362   2      0.000   0.600   1208    163     85.8114459    122.6354808   96600.0000000  443400.0000000  97200.0000000  443400.0000000  
70      120     168     0       1       83.8368627    126.5497857   0.000   0.235   24.059  0.503   3      0.000   0.200   120     169     83.8365918    126.5328247   98200.0000000  661000.0000000  98400.0000000  661000.0000000  
71      200     168     0       2       83.9825250    126.3433060   0.000   0.212   21.521  0.383   2      0.000   0.400   200     170     83.9819696    126.3085819   98200.0000000  645000.0000000  98600.0000000  645000.0000000  
72      520     168     0       2       84.5644715    125.4065957   0.000   0.274   28.045  0.504   3      0.000   0.400   520     170     84.5638562    125.3682493   98200.0000000  581000.0000000  98600.0000000  581000.0000000  
73      792     168     0       2       85.0579490    124.4368507   0.000   0.189   18.005  0.409   3      0.000   0.400   792     170     85.0572720    124.3947978   98200.0000000  526600.0000000  98600.0000000  526600.0000000  
74      896     168     0       3       85.2462517    124.0128327   0.000   0.207   20.707  0.411   3      0.000   0.600   896     171     85.2451947    123.9473495   98200.0000000  505800.0000000  98800.0000000  505800.0000000  
75      1056    168     0       3       85.5354335    123.2906384   0.000   0.197   19.630  0.359   2      0.000   0.600   1056    171     85.5343078    123.2210875   98200.0000000  473800.0000000  98800.0000000  473800.0000000  
76      1088    168     0       3       85.5931848    123.1348203   0.000   0.176   16.895  0.270   1      0.000   0.600   1088    171     85.5920443    123.0643975   98200.0000000  467400.0000000  98800.0000000  467400.0000000  
77      1248    168     0       3       85.8814434    122.2901856   0.000   0.223   22.590  0.477   3      0.000   0.600   1248    171     85.8802228    122.2150737   98200.0000000  435400.0000000  98800.0000000  435400.0000000  
78      1344    168     0       3       86.0539433    121.7241890   0.000   0.230   23.511  0.456   3      0.000   0.600   1344    171     86.0526691    121.6459716   98200.0000000  416200.0000000  98800.0000000  416200.0000000  
79      1312    176     0       3       85.9931204    121.7126365   0.000   0.210   21.122  0.386   2      0.000   0.600   1312    179     85.9918453    121.6356106   99800.0000000  422600.0000000  100400.0000000  422600.0000000  
80      1496    176     0       4       86.3225528    120.4964733   0.000   0.156   15.971  0.351   2      0.000   0.800   1496    180     86.3206982    120.3851718   99800.0000000  385800.0000000  100600.0000000  385800.0000000  
81      1568    176     0       4       86.4509684    119.9591776   0.000   0.215   21.910  0.378   2      0.000   0.800   1568    180     86.4490465    119.8441354   99800.0000000  371400.0000000  100600.0000000  371400.0000000  
82      424     184     0       2       84.3851871    125.4107873   0.000   0.286   29.843  0.511   3      0.000   0.400   424     186     84.3845723    125.3736666   101400.0000000  600200.0000000  101800.0000000  600200.0000000  
83      552     184     0       2       84.6175478    124.9920202   0.000   0.309   32.696  0.566   3      0.000   0.400   552     186     84.6169062    124.9533437   101400.0000000  574600.0000000  101800.0000000  574600.0000000  
84      600     184     0       2       84.7046156    124.8254968   0.000   0.262   25.374  0.516   3      0.000   0.400   600     186     84.7039634    124.7862040   101400.0000000  565000.0000000  101800.0000000  565000.0000000  
